# Z=6	: 0.272916
# Z=8	: 0.727084
#
#       PHOTON      SCATTERING      PHOTO-    PAIR PRODUCTION  TOTAL ATTENUATION
#       ENERGY   COHERENT INCOHER. ELECTRIC    IN       IN       WITH   WITHOUT
#                                 ABSORPTION NUCLEAR ELECTRON  COHERENT COHERENT
#                                             FIELD    FIELD    SCATT.   SCATT.
#         (MeV)    (cm2/g)   (cm2/g)   (cm2/g)   (cm2/g)   (cm2/g)   (cm2/g)   (cm2/g)
#
       1.000E-03 1.386E+00 9.637E-03 3.939E+03 0.000E+00 0.000E+00 3.941E+03 3.939E+03
       1.500E-03 1.274E+00 1.970E-02 1.316E+03 0.000E+00 0.000E+00 1.317E+03 1.316E+03
       2.000E-03 1.145E+00 3.123E-02 5.867E+02 0.000E+00 0.000E+00 5.879E+02 5.867E+02
       3.000E-03 8.960E-01 5.449E-02 1.815E+02 0.000E+00 0.000E+00 1.825E+02 1.816E+02
       4.000E-03 6.951E-01 7.467E-02 7.727E+01 0.000E+00 0.000E+00 7.804E+01 7.734E+01
       5.000E-03 5.475E-01 9.072E-02 3.941E+01 0.000E+00 0.000E+00 4.005E+01 3.950E+01
       6.000E-03 4.417E-01 1.031E-01 2.258E+01 0.000E+00 0.000E+00 2.312E+01 2.268E+01
       8.000E-03 3.078E-01 1.201E-01 9.277E+00 0.000E+00 0.000E+00 9.705E+00 9.397E+00
       1.000E-02 2.307E-01 1.310E-01 4.614E+00 0.000E+00 0.000E+00 4.976E+00 4.745E+00
       1.500E-02 1.348E-01 1.470E-01 1.273E+00 0.000E+00 0.000E+00 1.555E+00 1.420E+00
       2.000E-02 8.957E-02 1.555E-01 5.047E-01 0.000E+00 0.000E+00 7.498E-01 6.602E-01
       3.000E-02 4.733E-02 1.625E-01 1.349E-01 0.000E+00 0.000E+00 3.447E-01 2.973E-01
       4.000E-02 2.896E-02 1.632E-01 5.248E-02 0.000E+00 0.000E+00 2.446E-01 2.157E-01
       5.000E-02 1.949E-02 1.615E-01 2.515E-02 0.000E+00 0.000E+00 2.061E-01 1.866E-01
       6.000E-02 1.400E-02 1.588E-01 1.377E-02 0.000E+00 0.000E+00 1.865E-01 1.725E-01
       8.000E-02 8.203E-03 1.525E-01 5.316E-03 0.000E+00 0.000E+00 1.660E-01 1.578E-01
       1.000E-01 5.369E-03 1.462E-01 2.543E-03 0.000E+00 0.000E+00 1.541E-01 1.487E-01
       1.500E-01 2.448E-03 1.326E-01 6.721E-04 0.000E+00 0.000E+00 1.357E-01 1.333E-01
       2.000E-01 1.390E-03 1.218E-01 2.654E-04 0.000E+00 0.000E+00 1.235E-01 1.221E-01
       3.000E-01 6.224E-04 1.062E-01 7.494E-05 0.000E+00 0.000E+00 1.069E-01 1.063E-01
       4.000E-01 3.510E-04 9.522E-02 3.207E-05 0.000E+00 0.000E+00 9.561E-02 9.526E-02
       5.000E-01 2.249E-04 8.701E-02 1.729E-05 0.000E+00 0.000E+00 8.726E-02 8.703E-02
       6.000E-01 1.563E-04 8.050E-02 1.076E-05 0.000E+00 0.000E+00 8.067E-02 8.051E-02
       8.000E-01 8.799E-05 7.074E-02 5.432E-06 0.000E+00 0.000E+00 7.084E-02 7.075E-02
       1.000E+00 5.632E-05 6.363E-02 3.377E-06 0.000E+00 0.000E+00 6.369E-02 6.363E-02
       1.022E+00 5.393E-05 6.296E-02 3.143E-06 0.000E+00 0.000E+00 6.302E-02 6.296E-02
       1.250E+00 3.607E-05 5.690E-02 2.134E-06 1.805E-05 0.000E+00 5.695E-02 5.692E-02
       1.500E+00 2.504E-05 5.171E-02 1.549E-06 9.981E-05 0.000E+00 5.184E-02 5.181E-02
       2.000E+00 1.409E-05 4.414E-02 9.744E-07 3.973E-04 0.000E+00 4.455E-02 4.453E-02
       2.044E+00 1.349E-05 4.358E-02 9.426E-07 4.282E-04 0.000E+00 4.402E-02 4.401E-02
       3.000E+00 6.261E-06 3.472E-02 5.446E-07 1.136E-03 1.215E-05 3.587E-02 3.587E-02
       4.000E+00 3.523E-06 2.896E-02 3.739E-07 1.843E-03 4.960E-05 3.086E-02 3.085E-02
       5.000E+00 2.254E-06 2.501E-02 2.836E-07 2.472E-03 9.882E-05 2.758E-02 2.758E-02
       6.000E+00 1.565E-06 2.210E-02 2.280E-07 3.038E-03 1.518E-04 2.530E-02 2.529E-02
       7.000E+00 1.150E-06 1.987E-02 1.905E-07 3.542E-03 2.046E-04 2.362E-02 2.362E-02
       8.000E+00 8.805E-07 1.808E-02 1.635E-07 3.995E-03 2.560E-04 2.233E-02 2.233E-02
       9.000E+00 6.958E-07 1.662E-02 1.431E-07 4.409E-03 3.052E-04 2.134E-02 2.134E-02
       1.000E+01 5.636E-07 1.540E-02 1.273E-07 4.782E-03 3.521E-04 2.054E-02 2.054E-02
       1.100E+01 4.657E-07 1.436E-02 1.146E-07 5.122E-03 3.966E-04 1.988E-02 1.988E-02
       1.200E+01 3.913E-07 1.347E-02 1.041E-07 5.435E-03 4.388E-04 1.935E-02 1.935E-02
       1.300E+01 3.335E-07 1.269E-02 9.544E-08 5.726E-03 4.786E-04 1.889E-02 1.889E-02
       1.400E+01 2.875E-07 1.200E-02 8.808E-08 5.997E-03 5.167E-04 1.852E-02 1.852E-02
       1.500E+01 2.505E-07 1.140E-02 8.179E-08 6.249E-03 5.525E-04 1.820E-02 1.820E-02
       1.600E+01 2.201E-07 1.086E-02 7.632E-08 6.489E-03 5.870E-04 1.793E-02 1.793E-02
       1.800E+01 1.739E-07 9.919E-03 6.733E-08 6.924E-03 6.511E-04 1.749E-02 1.749E-02
       2.000E+01 1.409E-07 9.148E-03 6.021E-08 7.314E-03 7.095E-04 1.717E-02 1.717E-02
       2.200E+01 1.164E-07 8.498E-03 5.447E-08 7.670E-03 7.637E-04 1.693E-02 1.693E-02
       2.400E+01 9.784E-08 7.941E-03 4.971E-08 7.993E-03 8.135E-04 1.675E-02 1.675E-02
       2.600E+01 8.337E-08 7.455E-03 4.572E-08 8.288E-03 8.597E-04 1.660E-02 1.660E-02
       2.800E+01 7.187E-08 7.033E-03 4.231E-08 8.562E-03 9.031E-04 1.650E-02 1.650E-02
       3.000E+01 6.261E-08 6.660E-03 3.940E-08 8.815E-03 9.435E-04 1.642E-02 1.642E-02
       4.000E+01 3.523E-08 5.291E-03 2.927E-08 9.847E-03 1.114E-03 1.625E-02 1.625E-02
       5.000E+01 2.254E-08 4.418E-03 2.328E-08 1.063E-02 1.246E-03 1.630E-02 1.630E-02
       6.000E+01 1.565E-08 3.805E-03 1.933E-08 1.125E-02 1.354E-03 1.641E-02 1.641E-02
       8.000E+01 8.805E-09 3.002E-03 1.443E-08 1.219E-02 1.521E-03 1.672E-02 1.672E-02
       1.000E+02 5.635E-09 2.492E-03 1.151E-08 1.288E-02 1.646E-03 1.702E-02 1.702E-02
       1.500E+02 2.504E-09 1.774E-03 7.641E-09 1.403E-02 1.863E-03 1.767E-02 1.767E-02
       2.000E+02 1.408E-09 1.391E-03 5.722E-09 1.474E-02 2.005E-03 1.813E-02 1.813E-02
       3.000E+02 6.261E-10 9.859E-04 3.805E-09 1.559E-02 2.187E-03 1.876E-02 1.876E-02
       4.000E+02 3.522E-10 7.722E-04 2.852E-09 1.609E-02 2.299E-03 1.916E-02 1.916E-02
       5.000E+02 2.254E-10 6.393E-04 2.280E-09 1.642E-02 2.376E-03 1.944E-02 1.944E-02
       6.000E+02 1.565E-10 5.475E-04 1.900E-09 1.666E-02 2.434E-03 1.965E-02 1.965E-02
       8.000E+02 8.805E-11 4.275E-04 1.424E-09 1.699E-02 2.514E-03 1.993E-02 1.993E-02
       1.000E+03 5.635E-11 3.517E-04 1.139E-09 1.720E-02 2.568E-03 2.012E-02 2.012E-02
       1.500E+03 2.504E-11 2.456E-04 7.589E-10 1.751E-02 2.649E-03 2.040E-02 2.040E-02
       2.000E+03 1.408E-11 1.901E-04 5.691E-10 1.768E-02 2.695E-03 2.056E-02 2.056E-02
       3.000E+03 6.261E-12 1.322E-04 3.793E-10 1.786E-02 2.745E-03 2.074E-02 2.074E-02
       4.000E+03 3.522E-12 1.020E-04 2.845E-10 1.796E-02 2.775E-03 2.084E-02 2.084E-02
       5.000E+03 2.254E-12 8.343E-05 2.275E-10 1.802E-02 2.793E-03 2.090E-02 2.090E-02
       6.000E+03 1.565E-12 7.074E-05 1.896E-10 1.807E-02 2.806E-03 2.094E-02 2.094E-02
       8.000E+03 8.805E-13 5.449E-05 1.422E-10 1.812E-02 2.823E-03 2.100E-02 2.100E-02
       1.000E+04 5.635E-13 4.448E-05 1.138E-10 1.816E-02 2.834E-03 2.104E-02 2.104E-02
       1.500E+04 2.504E-13 3.075E-05 7.583E-11 1.821E-02 2.848E-03 2.109E-02 2.109E-02
       2.000E+04 1.408E-13 2.364E-05 5.688E-11 1.824E-02 2.857E-03 2.112E-02 2.112E-02
       3.000E+04 6.261E-14 1.630E-05 3.793E-11 1.827E-02 2.865E-03 2.115E-02 2.115E-02
       4.000E+04 3.522E-14 1.252E-05 2.844E-11 1.828E-02 2.871E-03 2.117E-02 2.117E-02
       5.000E+04 2.254E-14 1.019E-05 2.275E-11 1.829E-02 2.874E-03 2.117E-02 2.117E-02
       6.000E+04 1.565E-14 8.617E-06 1.896E-11 1.830E-02 2.876E-03 2.118E-02 2.118E-02
       8.000E+04 8.805E-15 6.608E-06 1.422E-11 1.830E-02 2.878E-03 2.119E-02 2.119E-02
       1.000E+05 5.635E-15 5.374E-06 1.138E-11 1.831E-02 2.879E-03 2.120E-02 2.120E-02
